0.7109
1.6831
2.6655
3.6826
4.6841
5.6450
6.6846
7.7969
8.7974
9.8379
10.7500
11.6045
12.3818
13.1694
13.9106
14.6587
15.4082
16.2241
17.0410
18.5820
19.3691
20.1582
20.9194
21.6670
22.4170
23.1196
23.8350
24.5327
25.3872
26.2134
27.0684
27.9233
28.8350
29.8911
31.0454
32.0767
33.0518
33.9385
34.7568
35.5771
36.4434
37.2725
38.1191
38.9556
39.8613
41.0283
42.1655
43.2783
44.3379
45.3267
46.3071
47.1704
48.0439
48.8638
49.6689
50.4668
51.2866
52.4277
53.6304
54.7314
55.7915
56.8184
57.8457
58.8623
59.8281
60.8403
62.0103
62.9893
64.1108
65.2056
66.2124
67.5142
68.6763
69.8086
70.9976
72.1973
73.2627
74.3740
75.5195
76.7056
77.7529
78.7754
79.8042
81.0015
82.1841
83.4956
84.7363
85.6748
86.6021
87.5454
88.7349
89.9692
91.2388
92.3994
93.4229
94.3716
95.3369
96.3037
97.2427
98.3848
99.6484
100.8477
101.9355
103.0488
104.1880
105.2783
106.4741
107.7031
108.7900
109.9668
111.1416
112.2622
113.3745
114.5874
115.7612
116.8530
118.0537
119.2368
120.2583
121.3848
122.5293
123.5537
124.6689
125.9014
126.9268
128.0557
129.2148
130.2402
131.3242
132.4639
133.6143
134.6475
135.7866
136.9536
137.9917
139.0332
140.1904
141.3452
142.4189
143.5474
144.6489
145.6343
146.7183
147.8774
148.8979
149.9888
151.1777
152.2734
153.3545
154.4990
155.6533
156.6445
157.6978
158.7974
159.7432
160.8247
162.0732
163.0962
164.0581
165.1035
166.1968
167.1748
168.2642
169.3511
170.3325
171.3457
172.3794
173.4312
174.3955
175.4233
176.4990
177.5122
178.5322
179.6201
180.6831
181.6685
182.6934
183.7524
184.8711
186.1060
187.2612
188.2837
189.3911
190.5928
191.6489
192.7930
193.9951
195.1055
196.1831
197.3115
198.4712
199.4834
200.5371
201.6987
202.7554
203.8755
205.1025
206.1958
207.3120
208.4658
209.5688
210.6167
211.6807
212.7510
213.7412
214.8418
216.0288
217.0664
218.1289
219.1519
220.0513
220.8735
221.7056
222.5762
223.5742
224.5635
225.6948
226.7305
227.6626
228.6611
229.6318
230.4966
231.3047
232.0479
232.7725
233.5112
234.2310
234.9819
235.7070
236.4395
237.1592
238.0498
238.9487
239.8960
240.8887
241.8569
242.8125
243.7627
244.7104
245.6606
246.6494
247.6255
248.6606
249.8242
251.0552
252.1294
253.1582
254.1011
255.0313
256.0000
256.9375
257.9224
258.8604
259.8618
260.9395
262.0464
263.1343
264.1182
265.1030
266.2417
267.3545
268.3740
269.4170
270.4917
271.5620
272.6152
273.7446
274.8887
275.9297
277.0254
278.1558
279.1899
280.3389
281.5435
282.6353
283.6865
284.8315
286.0444
287.1123
288.2549
289.4810
290.5581
291.7021
292.8862
293.9146
295.0439
296.2803
297.2788
298.1714
299.0938
300.1875
301.1855
302.3979
303.6401
304.6577
305.6333
306.6826
307.7383
308.6914
309.6938
310.7495
311.7681
312.8394
313.9443
315.0239
316.0513
317.1445
318.2612
319.2954
320.4307
321.6108
322.6660
323.7847
324.9561
325.9604
327.0518
328.2295
329.3389
330.4458
331.6016
332.6968
333.7559
334.8955
335.9897
336.9927
338.0400
338.9526
339.7881
340.5747
341.3677
342.2021
343.4199
344.3818
345.5039
346.7173
347.8120
348.9058
349.9775
350.9463
351.9648
353.0239
354.1055
355.0693
356.1255
357.2280
358.1841
359.0649
359.9414
361.3623
362.6870
363.8633
365.0967
366.2158
367.3281
368.5420
369.7148
370.7861
371.9233
373.0596
374.1152
375.2661
376.4014
377.3984
378.4814
379.6206
380.6245
381.5859
382.5840
383.6436
384.5903
385.6201
386.7104
387.7944
388.8115
389.8892
390.9624
391.9878
392.9277
393.8965
394.9458
395.9019
396.9331
397.9971
399.0605
400.0249
401.0850
402.2109
403.1636
403.9658
404.7324
405.4717
406.1660
406.8545
407.5635
408.3188
409.1133
409.8809
410.6304
411.5996
412.5654
413.5449
414.5288
415.4932
416.4307
417.3389
418.2607
419.1899
420.1143
421.0649
422.0537
423.1157
424.1465
425.1860
426.2183
427.2227
428.2471
429.3223
430.3960
431.3564
432.3550
433.3867
434.3516
435.3521
436.4858
437.5142
438.4209
439.3950
440.4502
441.4180
442.3760
443.4224
444.4624
445.3525
446.3086
447.3013
448.2651
449.1743
450.2129
451.3364
452.3521
453.3677
454.4390
455.4683
456.3867
457.3726
458.2896
459.1074
459.8647
460.5645
461.2744
461.9985
462.7773
463.5630
464.5093
465.7622
466.6968
467.6274
468.4634
469.2695
470.0186
470.7476
471.4829
472.2290
473.0024
473.9819
474.9556
475.9160
476.8838
477.8164
478.7612
479.6636
480.5542
481.4067
482.2158
482.9536
483.6685
484.3579
485.0527
485.7871
486.5229
487.2661
488.0674
488.9800
489.8110
490.6182
491.6123
492.6802
493.7002
494.7051
495.7109
496.7246
497.7388
498.7310
499.7583
500.8354
501.8838
502.9053
503.9272
504.9395
505.8984
506.7451
507.5815
508.4395
509.2544
510.0708
510.8799
511.7300
512.5537
513.4858
514.4287
515.4414
516.3838
517.3335
518.2822
519.1880
520.0234
520.8599
521.6646
522.4688
523.2793
524.1108
524.9355
525.7637
526.5659
527.3438
528.1157
528.8608
529.5938
530.3076
531.0229
531.7490
532.4775
533.1714
533.8979
534.6172
535.3149
535.9883
536.6836
537.3477
537.9922
538.6099
539.2358
539.8735
540.5371
541.3706
542.2690
543.1689
544.0767
545.0283
546.0029
546.9795
548.0181
548.9575
549.7896
550.5376
551.2607
551.9409
552.6226
553.2993
553.9907
554.6914
555.3901
556.1143
556.8540
557.6313
558.4858
559.3716
560.1592
560.9697
561.8149
562.6558
563.5552
564.5039
565.5054
566.4131
567.3203
568.1563
568.9209
569.6860
570.5088
571.4287
572.5049
573.4917
574.4351
575.3374
576.2026
577.0288
577.8711
578.7534
579.6841
580.6230
581.5610
582.4063
583.2778
584.1846
585.1094
586.0718
587.0459
587.9995
588.8965
589.7505
590.5874
591.4312
592.2300
592.9829
593.8027
594.7666
595.6470
596.5596
597.5283
598.4087
599.3423
600.2661
601.2007
602.0464
602.8906
603.7212
604.6382
605.6191
606.5962
607.6753
608.7710
609.7446
610.7222
611.6519
612.5078
613.3936
614.2739
615.2407
616.2070
617.2939
618.3853
619.3481
620.3389
621.3501
622.2534
623.1450
623.9810
624.7754
625.5161
626.2842
627.1421
628.2681
629.2192
630.2632
631.2798
632.2075
633.1719
634.1099
635.0161
635.9927
636.9087
637.7622
638.5786
639.4063
640.2710
641.1084
641.9614
642.8091
643.7280
644.6323
645.6274
646.6470
647.6084
648.5762
649.5444
650.4189
651.2588
652.0552
652.7891
653.4692
654.1826
654.9663
656.0957
657.0620
658.0723
659.0981
660.0713
660.9575
661.8457
662.7124
663.5308
664.4082
665.2979
666.1646
667.1772
668.4189
669.5112
670.4976
671.4214
672.2900
673.1597
674.0308
674.8706
675.6787
676.5557
677.5151
678.4321
679.3320
680.2441
681.1055
681.8979
682.6606
683.4258
684.6172
685.7397
686.8604
687.8247
688.7451
689.6724
690.5713
691.5078
692.4258
693.3428
694.2622
695.1929
696.0815
696.8896
697.6152
698.3286
699.0479
699.8096
700.7251
701.7046
702.7173
703.7451
704.7754
705.7808
706.7407
707.6714
708.5854
709.4873
710.3931
711.3286
712.2563
713.1489
714.0801
715.0015
715.8438
716.6938
717.5103
718.2983
719.1152
719.9424
720.8022
721.6616
722.4927
723.3486
724.2124
725.0825
725.8921
726.7578
727.6147
728.5068
729.3979
730.3521
731.3149
732.2124
733.1484
734.0776
734.9849
735.8643
736.7505
737.6626
738.5283
739.4204
740.2998
741.1836
742.0601
742.9546
743.8657
744.7266
745.6367
746.5635
747.4556
748.3755
749.2671
750.1279
750.9336
751.7642
752.6157
753.5049
754.4219
755.4302
756.4854
757.4614
758.3799
759.2603
760.1392
760.9810
761.8779
762.7993
763.7148
764.6919
765.7266
766.6660
767.6025
768.5493
769.4565
770.2778
771.0972
771.9272
772.7563
773.5571
774.4248
775.3032
776.2061
777.0625
777.8770
778.6089
779.3418
780.0391
780.7217
781.4072
782.1270
782.8735
783.6426
784.3789
785.1299
785.8433
786.5195
787.2002
787.8535
788.5269
789.2300
789.9912
790.7612
791.6436
792.4937
793.3218
794.1299
794.9658
795.7783
796.5596
797.3828
798.2544
799.1758
800.1006
801.0654
802.0303
802.9854
803.9346
804.8687
805.7378
806.6484
807.5684
808.4839
809.4976
810.4932
811.3994
812.3369
813.2412
814.1284
814.9590
815.8457
816.8101
817.8687
818.8613
819.8945
820.8823
821.7910
822.7100
823.6504
824.5469
825.4185
826.3105
827.2080
828.0444
828.9331
829.7964
830.7202
831.6079
832.5566
833.4946
834.3828
835.2529
836.1016
836.9639
837.7588
838.5767
839.3828
840.2021
841.0269
841.8687
842.7280
843.5693
844.4717
845.3755
846.2666
847.1084
847.9912
848.8921
849.7261
850.5752
851.4229
852.2793
853.1333
854.0210
854.8667
855.6592
856.3999
857.1523
857.9414
858.7212
859.5273
860.5005
861.4746
862.4077
863.3433
864.2681
865.1245
865.9292
866.7427
867.5356
868.3867
869.2822
870.2144
871.1602
872.1064
873.0508
874.0444
874.9722
875.8408
876.7080
877.6040
878.4790
879.3589
880.2866
881.2197
882.1304
883.0859
884.0425
884.9199
885.8130
886.6846
887.4771
888.2646
889.0688
889.9097
890.7725
891.7563
892.7632
893.7549
894.6865
895.5981
896.5205
897.4409
898.3315
899.2065
900.1099
901.0166
901.9048
902.8267
903.7515
904.5991
905.4863
906.3535
907.1406
907.9634
908.8281
909.6938
910.5229
911.4038
912.3027
913.1523
914.0781
915.0093
915.9175
916.7280
917.6250
918.4819
919.2886
920.1816
921.1216
922.0151
922.8442
923.7427
924.6812
925.6021
926.5220
927.4194
928.2847
929.1147
929.9863
930.8696
931.7500
932.6289
933.4087
934.1860
935.0649
935.8901
936.7012
937.4595
938.2393
939.2402
940.1772
941.1914
942.1450
943.0273
943.8735
944.6973
945.4790
946.2788
947.0986
947.9702
948.8975
949.8721
950.8638
951.8774
952.8530
953.8569
954.8262
955.8149
956.7368
957.6680
958.5776
959.4463
960.3398
961.2642
962.2314
963.2202
964.1680
965.0850
965.9858
966.8511
967.7422
968.6484
969.4873
970.2642
971.1113
971.9985
972.9150
973.7773
974.6270
975.5078
976.4473
977.4053
978.3286
979.1602
979.9463
980.6865
981.4082
982.1030
982.8027
983.5073
984.2212
984.9873
985.7749
986.6328
987.4683
988.2861
989.1050
989.9028
990.6929
991.4473
992.1875
992.9292
993.6665
994.4678
995.3062
996.2080
997.1548
998.1084
999.0337
999.9165
1000.7578
1001.5659
1002.3564
1003.1113
1003.9204
1004.7598
1005.6465
1006.5098
1007.4209
1008.3325
1009.2417
1010.0698
1010.8784
1011.6826
1012.4370
1013.1870
1013.9458
1014.6953
1015.4160
1016.1997
1017.0117
1017.8848
1018.7612
1019.6763
1020.5903
1021.4683
1022.3271
1023.1489
1023.9360
1024.7324
1025.5356
1026.3311
1027.0781
1027.8389
1028.5986
1029.3374
1030.0488
1030.3394
1030.8271
1031.5303
1032.2383
1033.0195
1033.9160
1034.7720
1035.5815
1036.3555
1037.0566
1037.7339
1038.4248
1039.1216
1039.9185
1040.8799
1041.8496
1042.7715
1043.7129
1044.6304
1045.5161
1046.3794
1047.2671
1048.1021
1048.9595
1049.7852
1050.6089
1051.3838
1052.1709
1052.9590
1053.7935
1054.6450
1055.5151
1056.4106
1057.2427
1058.0767
1058.8516
1059.5781
1060.3066
1061.0454
1061.7832
1062.5293
1063.2734
1064.0044
1064.7690
1065.6030
1066.4570
1067.3428
1068.2344
1069.1279
1069.9893
1070.8545
1071.7236
1072.5142
1073.2773
1074.0571
1074.8730
1075.7524
1076.5537
1077.4512
1078.3794
1079.2437
1080.1250
1081.0142
1081.8550
1082.7383
1083.6025
1084.4473
1085.2651
1086.0815
1086.9341
1087.7612
1088.5840
1089.3936
1090.1880
1090.9561
1091.7324
1092.5142
1093.3403
1094.2046
1095.0010
1095.7534
1096.5303
1097.2744
1098.0273
1098.7739
1099.5024
1100.2344
1101.0190
1101.8374
1102.7021
1103.5269
1104.4272
1105.3154
1106.2173
1107.1309
1108.0371
1108.8438
1109.6606
1110.4956
1111.3101
1112.1406
1112.9746
1113.7930
1114.6563
1115.4873
1116.3701
1117.2788
1118.1694
1118.9805
1119.7935
1120.6152
1121.5254
1122.3931
1123.2988
1124.2007
1125.0547
1125.9277
1126.7861
1127.6055
1128.3813
1129.1895
1130.0659
1130.9814
1131.8853
1132.8027
1133.6885
1134.5317
1135.3599
1136.1641
1136.9253
1137.7241
1138.5146
1139.2861
1140.0146
1140.7441
1141.4731
1142.2686
1143.0430
1143.8008
1144.6641
1145.5161
1146.3867
1147.2349
1148.0776
1148.9150
1149.7192
1150.4722
1151.2227
1151.9243
1152.6118
1153.2974
1154.0083
1154.9126
1156.0396
1157.0273
1157.9917
1158.9434
1159.8828
1160.7842
1161.6201
1162.4819
1163.2681
1164.0527
1164.8091
1165.5449
1166.3223
1167.2212
1168.1709
1169.0845
1169.9902
1170.8892
1171.7402
1172.5835
1173.3950
1174.1738
1174.9761
1175.7759
1176.5723
1177.3555
1178.1504
1178.9312
1179.7261
1180.5347
1181.3647
1182.2295
1183.0752
1183.9473
1184.8203
1185.6392
1186.4834
1187.3257
1188.1421
1188.9565
1189.7954
1190.6367
1191.4624
1192.2505
1193.0542
1193.8511
1194.6641
1195.4937
1196.2881
1197.0493
1197.7754
1198.5767
1199.4233
1200.3242
1201.1689
1202.0625
1202.9707
1203.8345
1204.6875
1205.5386
1206.4126
1207.2598
1208.0967
1208.9380
1209.7471
1210.5938
1211.4355
1212.3120
1213.1108
1213.9346
1214.6826
1215.3896
1216.1099
1216.8804
1217.6260
1218.4385
1219.2861
1220.1465
1220.9692
1221.7095
1222.4639
1223.1768
1223.8706
1224.6436
1225.4951
1226.4434
1227.3652
1228.2656
1229.1294
1229.9385
1230.7241
1231.5127
1232.3267
1233.1465
1233.9585
1234.8120
1235.6626
1236.4849
1237.3481
1238.2197
1239.0859
1239.9165
1240.7656
1241.5977
1242.3999
1243.2280
1244.0698
1244.9111
1245.6978
1246.5093
1247.3584
1248.2637
1249.1187
1250.0337
1250.9619
1251.8735
1252.7256
1253.6167
1254.5020
1255.3579
1256.1646
1256.9702
1257.7676
1258.5161
1259.2822
1260.0928
1261.0171
1261.9448
1262.8916
1263.9004
1264.8140
1265.7461
1266.6172
1267.4189
1268.1997
1268.9570
1269.7529
1270.5156
1271.3516
1272.1997
1273.0820
1273.9341
1274.8398
1275.6929
1276.5156
1277.2964
1278.0229
1278.7402
1279.4961
1280.1997
1280.9536
1281.7422
1282.5923
1283.4194
1284.2939
1285.1748
1286.0068
1286.8452
1287.6475
1288.4473
1289.2959
1290.2144
1291.1753
1292.0698
1292.9839
1293.8711
1294.7314
1295.6123
1296.5146
1297.3984
1298.2329
1299.1162
1300.0239
1300.8887
1301.7427
1302.6558
1303.5747
1304.4883
1305.4277
1306.3901
1307.3281
1308.2007
1309.0874
1309.9438
1310.7612
1311.5786
1312.4009
1313.2305
1314.0752
1314.9609
1315.8311
1316.6694
1317.5254
1318.3594
1319.1436
1319.8945
1320.6284
1321.3921
1322.3916
1323.4189
1324.3828
1325.3252
1326.2480
1327.1387
1328.0210
1328.8545
1329.6563
1330.5088
1331.3584
1332.1934
1333.0000
1333.7476
1334.4556
1335.1646
1335.9258
1336.7114
1337.5630
1338.4287
1339.3076
1340.1436
1340.9902
1341.8267
1342.6660
1343.4751
1344.2856
1345.0898
1345.8994
1346.7476
1347.5815
1348.4268
1349.2954
1350.2017
1351.1133
1351.9683
1352.8379
1353.6851
1354.5381
1355.3662
1356.2197
1357.0786
1357.9116
1358.7261
1359.5239
1360.3105
1361.0615
1361.8281
1362.6133
1363.4038
1364.1440
1364.8999
1365.6714
1366.4258
1367.2212
1368.0371
1368.7881
1369.4883
1370.1592
1370.8364
1371.5205
1372.2437
1373.0205
1373.7764
1374.5410
1375.3657
1376.2813
1377.0996
1377.8726
1378.6382
1379.4033
1380.1650
1380.9766
1381.7861
1382.5718
1383.3423
1384.1025
1384.8467
1385.5601
1386.3315
1387.1455
1388.0225
1388.9180
1389.8276
1390.6777
1391.5908
1392.4868
1393.3462
1394.1797
1394.9883
1395.8101
1396.5659
1397.3989
1398.2109
1399.0098
1399.8662
1400.6514
1401.4336
1402.1919
1402.9048
1403.6855
1404.4443
1405.2324
1406.1030
1406.9517
1407.7666
1408.6060
1409.4004
1410.2046
1411.0186
1411.8169
1412.5981
1413.3701
1414.1611
1414.9404
1415.6831
1416.4365
1417.1821
1417.8677
1418.5669
1419.3018
1420.0322
1420.8188
1421.6084
1422.3999
1423.1758
1423.9702
1424.7744
1425.6167
1426.4790
1427.4023
1428.2979
1429.2407
1430.1880
1431.0903
1431.9888
1432.8779
1433.7583
1434.5986
1435.4326
1436.2500
1437.0449
1437.8872
1438.7129
1439.5601
1440.4414
1441.3501
1442.3149
1443.2988
1444.2144
1445.1504
1446.0396
1446.8813
1447.7510
1448.6230
1449.4478
1450.3071
1451.1343
1451.9512
1452.7593
1453.6011
1454.4985
1455.4214
1456.3394
1457.2329
1458.1128
1458.9917
1459.8467
1460.6533
1461.4761
1462.3052
1463.1665
1464.0039
1464.8506
1465.6924
1466.5151
1467.3145
1468.1050
1468.9048
1469.6973
1470.5640
1471.4126
1472.2944
1473.2290
1474.1563
1475.0581
1475.9663
1476.8545
1477.7056
1478.5098
1479.2979
1480.0776
1480.8555
1481.6729
1482.5195
1483.4307
1484.2949
1485.2109
1486.1567
1487.0371
1487.9258
1488.8423
1489.6909
1490.5186
1491.3916
1492.2910
1493.1973
1494.1377
1495.0825
1495.9780
1496.8931
1497.7720
1498.5693
1499.2969
1500.0239
1500.8145
1501.6338
1502.4111
1503.2275
1504.0996
1504.9292
1505.7959
1506.7422
1507.7354
1508.6548
1509.6265
1510.5518
1511.3916
1512.2412
1513.0815
1513.9497
1514.8159
1515.6660
1516.4780
1517.3628
1518.2881
1519.2090
1520.1147
1520.9507
1521.7134
1522.4365
1523.1328
1523.7998
1524.4648
1525.1382
1525.8643
1526.7104
1527.6392
1528.5420
1529.4531
1530.3647
1531.2598
1532.1479
1533.0029
1533.7710
1534.5049
1535.2690
1536.0371
1536.7852
1537.6162
1538.4785
1539.4111
1540.2524
1541.1826
1542.1489
1543.0068
1543.8184
1544.6230
1545.3618
1546.0620
1546.7988
1547.5322
1548.3232
1549.1313
1549.9404
1550.7266
1551.5488
1552.3525
1553.2285
1554.0396
1554.9043
1555.7695
1556.6597
1557.5493
1558.4443
1559.3203
1560.1650
1561.0317
1561.9121
1562.7588
1563.5508
1564.3335
1565.1382
1565.9497
1566.8193
1567.7295
1568.5708
1569.3604
1570.1187
1570.8350
1571.6118
1572.3882
1573.2344
1574.0942
1574.9575
1575.8374
1576.6709
1577.4771
1578.2627
1579.0083
1579.7285
1580.4209
1581.1152
1581.8530
1582.7598
1583.6826
1584.6250
1585.6401
1586.6382
1587.6025
1588.5454
1589.4263
1590.3203
1591.1846
1592.0361
1592.8809
1593.7178
1594.5552
1595.3643
1596.2769
1597.2021
1598.1118
1598.9858
1599.8584
1600.7070
1601.4976
1602.3633
1603.2568
1604.1836
1605.0684
1606.0107
1606.8525
1607.6816
1608.5405
1609.4658
1610.3823
1611.2446
1612.2666
1613.3081
1614.2637
1615.2891
1616.3188
1617.2651
1618.2686
1619.2559
1620.2007
1621.1919
1622.1729
1623.0586
1623.8501
1624.5854
1625.2998
1626.0513
1626.9404
1627.7998
1628.6611
1629.4214
1630.1455
1630.9028
1631.6484
1632.4531
1633.2998
1634.1484
1634.9263
1635.6870
1636.4263
1637.1748
1637.9072
1638.6069
1639.3232
1640.1494
1640.9727
1641.8213
1642.6875
1643.5972
1644.4727
1645.2920
1646.1143
1646.9468
1647.8062
1648.6675
1649.5767
1650.4258
1651.2339
1652.0391
1652.9189
1653.8511
1654.8467
1655.7578
1656.6865
1657.6221
1658.5215
1659.4248
1660.3374
1661.1909
1662.0200
1662.8066
1663.5713
1664.3193
1665.1802
1666.0815
1667.0112
1667.9829
1668.9868
1669.8994
1670.8252
1671.7183
1672.5835
1673.4233
1674.2246
1675.0000
1675.7988
1676.6406
1677.5288
1678.3643
1679.2769
1680.1899
1681.0708
1681.9507
1682.7783
1683.5659
1684.3159
1685.0879
1685.8560
1686.6587
1687.4897
1688.2944
1689.0518
1689.7939
1690.5029
1691.1753
1691.8691
1692.6040
1693.3486
1694.1143
1694.8672
1695.6631
1696.4609
1697.2900
1698.0728
1698.9048
1699.7314
1700.5059
1701.2329
1701.9580
1702.7285
1703.4575
1704.2612
1705.0674
1705.9258
1706.7661
1707.6650
1708.5923
1709.5449
1710.4800
1711.3911
1712.3125
1713.1523
1714.0439
1714.9302
1715.8340
1716.6899
1717.5605
1718.4053
1719.1636
1719.9321
1720.6802
1721.4067
1722.1060
1722.8911
1723.7700
1725.0000
1726.2178
1726.9756
1727.7837
1728.5928
1729.4546
1730.2500
1731.1118
1731.9546
1732.7603
1733.5693
1734.4053
1735.3101
1736.2773
1737.3345
1738.3164
1739.3037
1740.2588
1741.1772
1742.0991
1742.9883
1743.8228
1744.5820
1745.3257
1746.0791
1746.9380
1747.7793
1748.7671
1749.7769
1750.7534
1751.7373
1752.6465
1753.4980
1754.3110
1755.1196
1755.9282
1756.7949
1757.6665
1758.5410
1759.4673
1760.4033
1761.3862
1762.3003
1763.2686
1764.2095
1765.0542
1765.9292
1766.7622
1767.5552
1768.3916
1769.2476
1770.0776
1770.9067
1771.7310
1772.5898
1773.4863
1774.4575
1775.4771
1776.4360
1777.3506
1778.2422
1779.1177
1780.0288
1780.9194
1781.7676
1782.5308
1783.3267
1784.0923
1784.8857
1785.6758
1786.5288
1787.4639
1788.3428
1789.2705
1790.1260
1790.9990
1791.9097
1792.8423
1793.7134
1794.6074
1795.4814
1796.3101
1797.1777
1798.0376
1798.8960
1799.8237
1800.6953
1801.6641
1802.6426
1803.5840
1804.5371
1805.4307
1806.2412
1807.0361
1807.7842
1808.5425
1809.4429
1810.3564
1811.3486
1812.2876
1813.2031
1814.0732
1814.9487
1815.8306
1816.6885
1817.6113
1818.5659
1819.4634
1820.4014
1821.3228
1822.2280
1823.1592
1824.1021
1824.9888
1825.9028
1826.7769
1827.6357
1828.5010
1829.3789
1830.3125
1831.2202
1832.1768
1833.0869
1833.9624
1834.8525
1835.7075
1836.5557
1837.4316
1838.3359
1839.2578
1840.2085
1841.1025
1841.9214
1842.7075
1843.5269
1844.3408
1845.1504
1845.9946
1846.8579
1847.6890
1848.5752
1849.4619
1850.3364
1851.1763
1852.0112
1852.8501
1853.7158
1854.5601
1855.4463
1856.3208
1857.1694
1857.9907
1858.8101
1859.6450
1860.4468
1861.3208
1862.1768
1862.9937
1863.8145
1864.5869
1865.3125
1866.0435
1866.8125
1867.7212
1868.6909
1869.6528
1870.5029
1871.2827
1872.0024
1872.6968
1873.4072
1874.1304
1874.9668
1875.8149
1876.6470
1877.4766
1878.3057
1879.1108
1879.9214
1880.6851
1881.4180
1882.1274
1882.8726
1883.7046
1884.5771
1885.5171
1886.4600
1887.4097
1888.2827
1889.2046
1890.0991
1891.0029
1891.8960
1892.7842
1893.6094
1894.4399
1895.2920
1896.1567
1896.9985
1897.8833
1898.7529
1899.5703
1900.4209
1901.2358
1901.9907
1902.7358
1903.5210
1904.4058
1905.3267
1906.2222
1907.1455
1908.0625
1908.9678
1909.8169
1910.6958
1911.5869
1912.4731
1913.3154
1914.1865
1915.0859
1916.0254
1916.9126
1917.8237
1918.7490
1919.6582
1920.5845
1921.5088
1922.4287
1923.2588
1924.1157
1924.9565
1925.7666
1926.6265
1927.5742
1928.5742
1929.4980
1930.4570
1931.3999
1932.2959
1933.1890
1934.0747
1934.9575
1935.7852
1936.6357
1937.4824
1938.2695
1939.0107
1939.7939
1940.7607
1941.7593
1942.7705
1943.8213
1944.8101
1945.8184
1946.8467
1947.7959
1948.7046
1949.5830
1950.4697
1951.3848
1952.3042
1953.2607
1954.2437
1955.1826
1956.1514
1957.0972
1958.0088
1958.9219
1959.8228
1960.7144
1961.5864
1962.4688
1963.3638
1964.1841
1964.9600
1965.7085
1966.4712
1967.2949
1968.1440
1968.9229
1969.6641
1970.4941
1971.3374
1972.1929
1972.9810
1973.7725
1974.5796
1975.4390
1976.3286
1977.2119
1978.1118
1979.0112
1979.8970
1980.8154
1981.7368
1982.6377
1983.5396
1984.4785
1985.4370
1986.4155
1987.3721
1988.3198
1989.2686
1990.1631
1991.0884
1992.0166
1992.8706
1993.6934
1994.5464
1995.4692
1996.4302
1997.3813
1998.3521
1999.2979
2000.1870
2001.0981
2002.0234
2002.9170
2003.8379
2004.7856
2005.6831
2006.6079
2007.5425
2008.4297
2009.2842
2010.1533
2011.0542
2011.9023
2012.7446
2013.5781
2014.4277
2015.2710
2016.1553
2017.0586
2017.8945
2018.7368
2019.6104
2020.4189
2021.2939
2022.1421
2022.9751
2023.8315
2024.7271
2025.6362
2026.5093
2027.4219
2028.3291
2029.1895
2030.0752
2030.9424
2031.7817
2032.6367
2033.5298
2034.4648
2035.3467
2036.2920
2037.2129
2038.0776
2038.9312
2039.7993
2040.6182
2041.4795
2042.3613
2043.2134
2044.1274
2045.0537
2045.9175
2046.7993
2047.7075
2048.6172
2049.4780
2050.3472
2051.2002
2052.0430
2052.8804
2053.7168
2054.5332
2055.3950
2056.2661
2057.1514
2058.0610
2058.9688
2059.7773
2060.5483
2061.2744
2061.9785
2062.7192
2063.4785
2064.2437
2065.0132
2065.7603
2066.4839
2067.2192
2067.9268
2068.6074
2069.2627
2069.8906
2070.5229
2071.1431
2071.7500
2072.3535
2072.9668
2073.5752
2074.2046
2074.8545
2075.5435
2076.2744
2076.9976
2077.7236
2078.5293
2079.4341
2080.4214
2081.4424
2082.4185
2083.3726
2084.2998
2085.1675
2086.0029
2086.8589
2087.8340
2088.8506
2089.9199
2090.9902
2092.0366
2093.0308
2093.9917
2094.8672
2095.7739
2096.6802
2097.5820
2098.4702
2099.4224
2100.4248
2101.3335
2102.2603
2103.2183
2104.1528
2105.0527
2105.9263
2106.8149
2107.6685
2108.6118
2109.5938
2110.5317
2111.3979
2112.3018
2113.2510
2114.2168
2115.1240
2116.0410
2116.8823
2117.7202
2118.5386
2119.3833
2120.2002
2121.0562
2121.8760
2122.7085
2123.4873
2124.3071
2125.1138
2125.8594
2126.6133
2127.3750
2128.1855
2128.9277
2129.6538
2130.3984
2131.1899
2132.0142
2132.8442
2133.6836
2134.5430
2135.3809
2136.2451
2137.0786
2137.9131
2138.7534
2139.6226
2140.4492
2141.2788
2142.1411
2143.0449
2143.9941
2144.9546
2145.8857
2146.7847
2147.6919
2148.5674
2149.3833
2150.1943
2151.0464
2151.9219
2152.8311
2153.8203
2154.7998
2155.7573
2156.7246
2157.6611
2158.5317
2159.4209
2160.3022
2161.1328
2162.0063
2162.9082
2163.8584
2164.7256
2165.6504
2166.5161
2167.3208
2168.1567
2168.9854
2169.8154
2170.6831
2171.5850
2172.4658
2173.3652
2174.1792
2174.9956
2175.7520
2176.4595
2177.1396
2177.8447
2178.7373
2179.6816
2180.6763
2181.6592
2182.6123
2183.5327
2184.4272
2185.2559
2186.0352
2186.7891
2187.5464
2188.3125
2189.1445
2189.9712
2190.9053
2191.8965
2192.8145
2193.6865
2194.5293
2195.3296
2196.1592
2196.9995
2197.9023
2198.7773
2199.7197
2200.6816
2201.6460
2202.5894
2203.5083
2204.4033
2205.2935
2206.1587
2206.9941
2207.8433
2208.6909
2209.5278
2210.4258
2211.3628
2212.1968
2212.9634
2213.7593
2214.5503
2215.4102
2216.2979
2217.1714
2218.0020
2218.8438
2219.7026
2220.5981
2221.4561
2222.3643
2223.2837
2224.1377
2224.9946
2225.8843
2226.7778
2227.6230
2228.4609
2229.2939
2230.1313
2230.9424
2231.8418
2232.7334
2233.5806
2234.4971
2235.3730
2236.2153
2237.0957
2237.9707
2238.7876
2239.6240
2240.4438
2241.2109
2242.0029
2242.7915
2243.6099
2244.4482
2245.3857
2246.3652
2247.3135
2248.2983
2249.2759
2250.1558
2251.0264
2251.8442
2252.6680
2253.4761
2254.3535
2255.1943
2256.0820
2256.9360
2257.8325
2258.7661
2259.6865
2260.6289
2261.5552
2262.4165
2263.2505
2264.0947
2264.9551
2265.8174
2266.6646
2267.5571
2268.4556
2269.3135
2270.2031
2271.0571
2271.9111
2272.7520
2273.6099
2274.4409
2275.2202
2276.0483
2276.8813
2277.7002
2278.5522
2279.4092
2280.3271
2281.1377
2281.9106
2282.6299
2283.3174
2283.9951
2284.6558
2285.3262
2286.0161
2286.8013
2287.6006
2288.4355
2289.2744
2290.1089
2290.9077
2291.7173
2292.5337
2293.3403
2294.1304
2294.9375
2295.7417
2296.5835
2297.4214
2298.2979
2299.2090
2300.1904
2301.1558
2302.1304
2303.1226
2304.0815
2304.9365
2305.7310
2306.4800
2307.1836
2307.8774
2308.5728
2309.2896
2310.1133
2311.2002
2312.2954
2313.3315
2314.2290
2315.1196
2316.0078
2316.9219
2317.8110
2318.7646
2319.8022
2320.8901
2321.9243
2322.9243
2323.8584
2324.7705
2325.7241
2326.7319
2327.7041
2328.7202
2329.7075
2330.5957
2331.4927
2332.4004
2333.2798
2334.1152
2334.9658
2335.8071
2336.6187
2337.4692
2338.3301
2339.1704
2339.9292
2340.6641
2341.4517
2342.2598
2343.0654
2343.8291
2344.6392
2345.5273
2346.4390
2347.2881
2348.1001
2348.9063
2349.6943
2350.4824
2351.2588
2352.0776
2352.8975
2353.7549
2354.5938
2355.4717
2356.3359
2357.1924
2358.0801
2358.9858
2359.8682
2360.7559
2361.6323
2362.5205
2363.4077
2364.3730
2365.4131
2366.4409
2367.4429
2368.3765
2369.1714
2369.9663
2370.7446
2371.6440
2372.4775
2373.4136
2374.5239
2375.5454
2376.4985
2377.3926
2378.2246
2378.9873
2379.7705
2380.5513
2381.4165
2382.3721
2383.2744
2384.1440
2385.0605
2385.9722
2386.8374
2387.7251
2388.5688
2389.3745
2390.1440
2390.9609
2391.8115
2392.6646
2393.5073
2394.4189
2395.3662
2396.2998
2397.2500
2398.1787
2399.0513
2399.9390
2400.8247
2401.6812
2402.5483
2403.4385
2404.3716
2405.2793
2406.2217
2407.1143
2407.9072
2408.6807
2409.4790
2410.4365
2411.4590
2412.5474
2413.5596
2414.4902
2415.3359
2416.1162
2416.8945
2417.6348
2418.4336
2419.2241
2420.0908
2420.9409
2421.8755
2422.8843
2423.9204
2424.9199
2425.9619
2426.9102
2427.8232
2428.7173
2429.5693
2430.3892
2431.2681
2432.1699
2433.0200
2433.8887
2434.7959
2435.6074
2436.4468
2437.3242
2438.2388
2439.0933
2440.0000
2440.9634
2441.8916
2442.7813
2443.5811
2444.3589
2445.1309
2445.9453
2446.7563
2447.5596
2448.4502
2449.3711
2450.2896
2451.1729
2452.0894
2453.0449
2453.8867
2454.7236
2455.5493
2456.3960
2457.2798
2458.1973
2459.1309
2460.0742
2461.0557
2461.9941
2462.9263
2463.8413
2464.7373
2465.6147
2466.4697
2467.2944
2468.1665
2469.0371
2469.8564
2470.6948
2471.5708
2472.5342
2473.4946
2474.5225
2475.5610
2476.5132
2477.4414
2478.2852
2479.1309
2479.9873
2480.8638
2481.7104
2482.5918
2483.5439
2484.4648
2485.4302
2486.3467
2487.2046
2488.0640
2488.9365
2489.7627
2490.5371
2491.2939
2492.0225
2492.7378
2493.6431
2494.5103
2495.4458
2496.4292
2497.3794
2498.3057
2499.2075
2500.0513
2500.8354
2501.6230
2502.4102
2503.3047
2504.1816
2505.1431
2506.1289
2507.0166
2507.9365
2508.8345
2509.6563
2510.5181
2511.4126
2512.3389
2513.2529
2514.1802
2515.1294
2516.0107
2516.9385
2517.8887
2518.7783
2519.6948
2520.5942
2521.4097
2522.2017
2522.9829
2523.7646
2524.5615
2525.3618
2526.2671
2527.2188
2528.1265
2529.0430
2529.8950
2530.7227
2531.4990
2532.2168
2532.9385
2533.6987
2534.4863
2535.2690
2536.0752
2536.8960
2537.7271
2538.6055
2539.4805
2540.3198
2541.0957
2541.9067
2542.7324
2543.5913
2544.4595
2545.2480
2546.0430
2546.8696
2547.7759
2548.7104
2549.5527
2550.3892
2551.2246
2552.0610
2552.8721
2553.7524
2554.5811
2555.4233
2556.3213
2557.2266
2558.1660
2559.0796
2559.9688
2560.8389
2561.7173
2562.6226
2563.5220
2564.4395
2565.3574
2566.2754
2567.1831
2568.0645
2568.9312
2569.8545
2570.7402
2571.5688
2572.4419
2573.3237
2574.2124
2575.0620
2575.9502
2576.8130
2577.6216
2578.3989
2579.1436
2579.8545
2580.5459
2581.2090
2581.8916
2582.5254
2583.1709
2583.8452
2584.6294
2585.4688
2586.2954
2587.0972
2587.8765
2588.6201
2589.3667
2590.0493
2590.7495
2591.4321
2592.0894
2592.7510
2593.4209
2594.1323
2594.9150
2595.7612
2596.5986
2597.5015
2598.3354
2599.1772
2599.9912
2600.7749
2601.5483
2602.3198
2603.1035
2603.9229
2604.7783
2605.6089
2606.4785
2607.2900
2608.1470
2608.9912
2609.7715
2610.5112
2611.1978
2611.8521
2612.5220
2613.3872
2614.3223
2615.2251
2616.1992
2617.1577
2618.0776
2619.0718
2620.0493
2620.9678
2621.8096
2622.6333
2623.4370
2624.2300
2625.1201
2626.0527
2627.0557
2628.0278
2629.0479
2630.0371
2630.9785
2631.9136
2632.8193
2633.7461
2634.6328
2635.5688
2636.5127
2637.4023
2638.3135
2639.2344
2640.1230
2640.9990
2641.8716
2642.7266
2643.5474
2644.4111
2645.3379
2646.3647
2647.3540
2648.3755
2649.3447
2650.2368
2651.1948
2652.1729
2653.0986
2654.0298
2654.9673
2655.8940
2656.8647
2657.8691
2658.8765
2659.8643
2660.8716
2661.8384
2662.7163
2663.6333
2664.4819
2665.3242
2666.1392
2666.9165
2667.6436
2668.3452
2669.0718
2669.8403
2670.6636
2671.5112
2672.3091
2673.1191
2673.8921
2674.6475
2675.3984
2676.1543
2676.8779
2677.5947
2678.3325
2679.0547
2679.8027
2680.5435
2681.2983
2682.0581
2682.9097
2683.8369
2684.7402
2685.7544
2686.6577
2687.5151
2688.3789
2689.2539
2690.1489
2691.0840
2692.0288
2692.9341
2693.8740
2694.8193
2695.7910
2696.7549
2697.6934
2698.5986
2699.5601
2700.5371
2701.4097
2702.2114
2702.9863
2703.7891
2704.7324
2705.6870
2706.6099
2707.5942
2708.4854
2709.3066
2710.1011
2710.8828
2711.6387
2712.3506
2713.0684
2713.8066
2714.5391
2715.2954
2716.0693
2716.8013
2717.5693
2718.3281
2719.1382
2719.9058
2720.6816
2721.4897
2722.3159
2723.0889
2723.8647
2724.6147
2725.4019
2726.1719
2727.0537
2727.9517
2728.8511
2729.7993
2730.7437
2731.6455
2732.5469
2733.4258
2734.2158
2734.9893
2735.7178
2736.3887
2737.0972
2737.7646
2738.4624
2739.1563
2739.8262
2740.5010
2741.1685
2741.8643
2742.5527
2743.2817
2744.0083
2744.7593
2745.4604
2746.2427
2747.0234
2747.7642
2748.5122
2749.3628
2750.2373
2751.1724
2752.1108
2753.0400
2753.9336
2754.8330
2755.6982
2756.4561
2757.2373
2758.0200
2759.0498
2760.2480
2761.2378
2762.2373
2763.3315
2764.3682
2765.3408
2766.2905
2767.2310
2768.1133
2769.0132
2769.8975
2770.8081
2771.6831
2772.6299
2773.5508
2774.4082
2775.2544
2776.1489
2777.0591
2777.8442
2778.6812
2779.5469
2780.3926
2781.3042
2782.1914
2783.0654
2783.9902
2784.8613
2785.7217
2786.5811
2787.4238
2788.2842
2789.1187
2789.9961
2790.9243
2791.8027
2792.6665
2793.5234
2794.3838
2795.2314
2796.1338
2797.0225
2797.9224
2798.8115
2799.6729
2800.4883
2801.2959
2802.0576
2802.8369
2803.6260
2804.4746
2805.3237
2806.1934
2807.0439
2807.8833
2808.6851
2809.4585
2810.2642
2811.1216
2812.0073
2812.9614
2813.9385
2814.8833
2815.8433
2816.7964
2817.6704
2818.5864
2819.4854
2820.3574
2821.2813
2822.2012
2823.0762
2823.9590
2824.8330
2825.6660
2826.5405
2827.3828
2828.1606
2828.8657
2829.6030
2830.3555
2831.2046
2832.0054
2832.8467
2833.7075
2834.5142
2835.3374
2836.1460
2836.9775
2837.8096
2838.6074
2839.3945
2840.2358
2841.0669
2841.9629
2842.8696
2843.7642
2844.5815
2845.4590
2846.3599
2847.3574
2848.2690
2849.2036
2850.1318
2850.9810
2851.8286
2852.6694
2853.4912
2854.3467
2855.2393
2856.1709
2857.0029
2857.9004
2858.8501
2859.8311
2860.8037
2861.7720
2862.6934
2863.5391
2864.3965
2865.2085
2866.0381
2866.9458
2867.8101
2868.6934
2869.5513
2870.4741
2871.4092
2872.3291
2873.3066
2874.2661
2875.1875
2876.0640
2876.8999
2877.6895
2878.4307
2879.1851
2879.9814
2880.8804
2881.7754
2882.6890
2883.5947
2884.5122
2885.3809
2886.2046
2887.0728
2887.9214
2888.7905
2889.6772
2890.5679
2891.4214
2892.3071
2893.1372
2893.9219
2894.7031
2895.4766
2896.2993
2897.0884
2897.9390
2898.8916
2899.9546
2900.8945
2901.8467
2902.7324
2903.5483
2904.3809
2905.2065
2906.0029
2906.7632
2907.5078
2908.2437
2908.9624
2909.6533
2910.3550
2911.0610
2911.8008
2912.6978
2913.5376
2914.4116
2915.2441
2916.0586
2916.8525
2917.6714
2918.5269
2919.3037
2920.0713
2920.8354
2921.5830
2922.3384
2923.1758
2924.0889
2924.9766
2925.8472
2926.7129
2927.5581
2928.4165
2929.2969
2930.1338
2930.9194
2931.6987
2932.5024
2933.3716
2934.3389
2935.2681
2936.1196
2936.9185
2937.7280
2938.5918
2939.4868
2940.4272
2941.3989
2942.4204
2943.3872
2944.2598
2945.0503
2945.7661
2946.4517
2947.1372
2947.8320
2948.6040
2949.5703
2950.5591
2951.5059
2952.4961
2953.4355
2954.2798
2955.1455
2956.0391
2956.9409
2957.8271
2958.7485
2959.6387
2960.5513
2961.4634
2962.3228
2963.1436
2963.9268
2964.6948
2965.4355
2966.2104
2967.0010
2967.8345
2968.6636
2969.5923
2970.5156
2971.3843
2972.2881
2973.1494
2973.9712
2974.7930
2975.6211
2976.4575
2977.3071
2978.2119
2979.1089
2979.9961
2980.8462
2981.6978
2982.5249
2983.3950
2984.2129
2985.0322
2985.8315
2986.6934
2987.5347
2988.4482
2989.4102
2990.3765
2991.3433
2992.3140
2993.2637
2994.1445
2995.0469
2995.9570
2996.8198
2997.7051
2998.6279
2999.4766
3000.3433
3001.2461
3002.1899
3003.0796
3003.9878
3004.9248
3005.7690
3006.6523
3007.5264
3008.3579
3009.2295
3010.1304
3011.0317
3012.0059
3012.9204
3013.8027
3014.6338
3015.4800
3016.3193
3017.1328
3017.9648
3018.7905
3019.6445
3020.4653
3021.3428
3022.2202
3023.0806
3023.9810
3024.8657
3025.7178
3026.5293
3027.3589
3028.1563
3028.9185
3029.6270
3030.3105
3030.9961
3031.7080
3032.4951
3033.3086
3034.0864
3034.8569
3035.5703
3036.2500
3036.9595
3037.6475
3038.4058
3039.1953
3040.0854
3040.9263
3041.6934
3042.4316
3043.1362
3043.8491
3044.9189
3045.9067
3046.8594
3047.7949
3048.7021
3049.5381
3050.3481
3051.1812
3052.0322
3052.9175
3053.7695
3054.5981
3055.4258
3056.2363
3057.0234
3057.8013
3058.5684
3059.2891
3060.0005
3060.6885
3061.3862
3062.1108
3062.9229
3063.7593
3064.7334
3065.7173
3066.7393
3067.7979
3068.8350
3069.8052
3070.7065
3071.5996
3072.5137
3073.4644
3074.4146
3075.3687
3076.3140
3077.2158
3078.1411
3079.1045
3080.1055
3081.0986
3081.9888
3082.8032
3083.5806
3084.3145
3085.0054
3085.7354
3086.5938
3087.4360
3088.4478
3089.4946
3090.4170
3091.3623
3092.3018
3093.2397
3094.1284
3095.0596
3095.9678
3096.8438
3097.6436
3098.4917
3099.5049
3100.7466
3101.8115
3102.8965
3103.9146
3104.9258
3105.8975
3106.8433
3107.7310
3108.6826
3109.6182
3110.4956
3111.4150
3112.3667
3113.2852
3114.2700
3115.3345
3116.3379
3117.3296
3118.2808
3119.1875
3120.0400
3120.9048
3121.7588
3122.5776
3123.5020
3124.3779
3125.2603
3126.1890
3127.1973
3128.2344
3129.2441
3130.2480
3131.1719
3132.0049
3132.8604
3133.7275
3134.5708
3135.4414
3136.2593
3137.1704
3138.1016
3138.9619
3139.7993
3140.6924
3141.5591
3142.3989
3143.2910
3144.1772
3144.9927
3145.8076
3146.6333
3147.4360
3148.2134
3149.0059
3149.7534
3150.4839
3151.3203
3152.1611
3153.0679
3153.9854
3154.9175
3155.8413
3156.7529
3157.6685
3158.5654
3159.4600
3160.3027
3161.1104
3161.9170
3162.7378
3163.6406
3164.5576
3165.5034
3166.4692
3167.4102
3168.2681
3169.1353
3169.9751
3170.7646
3171.5508
3172.3760
3173.1494
3173.8921
3174.6831
3175.5024
3176.3633
3177.1875
3178.0332
3178.8784
3179.7578
3180.5942
3181.3711
3182.1758
3182.9556
3183.7085
3184.5078
3185.3564
3186.2183
3187.0444
3187.8633
3188.6079
3189.3633
3190.0889
3190.8057
3191.6040
3192.4258
3193.3750
3194.3140
3195.2339
3196.1553
3197.0552
3197.9238
3198.7129
3199.5088
3200.3008
3201.0947
3201.8711
3202.6816
3203.5229
3204.3726
3205.2617
3206.1655
3207.0322
3207.9692
3208.8877
3209.7715
3210.5771
3211.3726
3212.1523
3212.9448
3213.7495
3214.5996
3215.5049
3216.4248
3217.3770
3218.3418
3219.1885
3219.9868
3220.7813
3221.5674
3222.3691
3223.1362
3223.9082
3224.6665
3225.4028
3226.1328
3226.8687
3227.5493
3228.2144
3228.9092
3229.6123
3230.3535
3231.1284
3231.8770
3232.6147
3233.3604
3234.1274
3234.9014
3235.6401
3236.3945
3237.1201
3237.8384
3238.6055
3239.3862
3240.1963
3240.9937
3241.8013
3242.6294
3243.3823
3244.1548
3244.9063
3245.6274
3246.3354
3247.0845
3247.8481
3248.6436
3249.4019
3250.1953
3251.0063
3251.8496
3252.7153
3253.5718
3254.4175
3255.2466
3256.0801
3256.8916
3257.6895
3258.4819
3259.2637
3260.0347
3260.7939
3261.6133
3262.4600
3263.3472
3264.2407
3265.1333
3265.9888
3266.8135
3267.5889
3268.3770
3269.1401
3269.8940
3270.6489
3271.3784
3272.0923
3272.7783
3273.4688
3274.1621
3274.8501
3275.5068
3276.1572
3276.7598
3277.3799
3277.9995
3278.6831
3279.5415
3280.5371
3281.5576
3282.5571
3283.5513
3284.5400
3285.4907
3286.4189
3287.2500
3288.0059
3288.7515
3289.5103
